Parametri velivolo: 
Valore della massa:' 1043 
Valore apertura alare: 10.92 
Valore della superficie alare: 16.3 
Valore della corda: 1.49 
Valore del Mach di Drag Rise: 0.6 
Valore della distanza tra l'asse di spinta e l'asse baricentrico x lungo z :0 
Valore della distanza tra l'asse di spinta e l'asse baricentrico x lungo y :0 
Valore della distanza tra l'asse di spinta e l'asse baricentrico x lungo y :0 
Angolo tra l'asse di spinta e l'asse x nel piano x-y DTZ [deg] >0 verso DX : 0 
Angolo tra l'asse di spinta e l'asse x nel piano x-z DTY [deg] >0 verso l'alto : 0 
Numero di incidenze per cui sono disponibili i dati: 126 
Rotary derivatives (se è 1--> presenti): 0 
Valore del CG:
Valore di JX: 1272.5 
Valore di JY: 1806.7 
Valore di JZ: 2640.3 
Valore di JXZ: 0 
Opzione posizione baricentro: 0 
Nuova posizione baricentro: 0.25 
Posizione pilota lungo X (rispetto al CG): 0 
Posizione pilota lungo Y (rispetto al CG): 0 
Posizione pilota lungo Z (rispetto al CG): 0 

Parametri Deflection Limits: 
Deflessione MAX elevator: 20 
Deflessione MIN elevator: -20 
Deflessione Ailerons: 20 
Deflessione Rudder: 20 
Deflessione Flap MIN: 40 
Deflessione FLAP MAX: 0 

Parametri Massa Combustibile: 
Opzione massa (0-->costante, 1-->variabile): 1 
Frazione peso di combustibile (MTOW): 0.05 

Steady State Coefficients: 
alfa 	 CX 	 CY 	 CZ 	 Cl 	 Cm 	 Cn 	 

 -5 	 -0.0189295 	 0 	 0.162267 	 0 	 0.038 	 0 	
 -4.8 	 -0.0182907 	 0 	 0.171099 	 0 	 0.0348874 	 0 	
 -4.6 	 -0.0181577 	 0 	 0.174772 	 0 	 0.0317741 	 0 	
 -4.4 	 -0.0184762 	 0 	 0.173281 	 0 	 0.0286603 	 0 	
 -4.2 	 -0.0191923 	 0 	 0.166621 	 0 	 0.0255458 	 0 	
 -4 	 -0.0202517 	 0 	 0.15479 	 0 	 0.0224307 	 0 	
 -3.8 	 -0.0215007 	 0 	 0.139406 	 0 	 0.019315 	 0 	
 -3.6 	 -0.0227025 	 0 	 0.123914 	 0 	 0.0161987 	 0 	
 -3.4 	 -0.0238498 	 0 	 0.108427 	 0 	 0.0130818 	 0 	
 -3.2 	 -0.0249427 	 0 	 0.0929442 	 0 	 0.00996423 	 0 	
 -3 	 -0.0259814 	 0 	 0.0774659 	 0 	 0.00684607 	 0 	
 -2.8 	 -0.0269602 	 0 	 0.0619905 	 0 	 0.0037273 	 0 	
 -2.6 	 -0.0278549 	 0 	 0.0465112 	 0 	 0.00060791 	 0 	
 -2.4 	 -0.0286625 	 0 	 0.0310273 	 0 	 -0.00251209 	 0 	
 -2.2 	 -0.0293831 	 0 	 0.0155394 	 0 	 -0.0056327 	 0 	
 -2 	 -0.0300166 	 0 	 4.759e-005 	 0 	 -0.00875393 	 0 	
 -1.8 	 -0.0305666 	 0 	 -0.0154475 	 0 	 -0.0118758 	 0 	
 -1.6 	 -0.0310697 	 0 	 -0.0309445 	 0 	 -0.0149982 	 0 	
 -1.4 	 -0.0315357 	 0 	 -0.0464434 	 0 	 -0.0181213 	 0 	
 -1.2 	 -0.0319647 	 0 	 -0.0619442 	 0 	 -0.021245 	 0 	
 -1 	 -0.0323566 	 0 	 -0.0774471 	 0 	 -0.0243693 	 0 	
 -0.8 	 -0.0327102 	 0 	 -0.0929524 	 0 	 -0.0274942 	 0 	
 -0.6 	 -0.0329695 	 0 	 -0.108461 	 0 	 -0.0306197 	 0 	
 -0.4 	 -0.0331043 	 0 	 -0.123972 	 0 	 -0.0337459 	 0 	
 -0.2 	 -0.0331145 	 0 	 -0.139485 	 0 	 -0.0368726 	 0 	
 0 	 -0.033 	 0 	 -0.155 	 0 	 -0.04 	 0 	
 0.2 	 -0.0327609 	 0 	 -0.170515 	 0 	 -0.043128 	 0 	
 0.4 	 -0.0324199 	 0 	 -0.186031 	 0 	 -0.0462566 	 0 	
 0.6 	 -0.0320036 	 0 	 -0.201546 	 0 	 -0.0493858 	 0 	
 0.8 	 -0.0315122 	 0 	 -0.217061 	 0 	 -0.0525156 	 0 	
 1 	 -0.0309457 	 0 	 -0.232575 	 0 	 -0.0556461 	 0 	
 1.2 	 -0.030304 	 0 	 -0.248089 	 0 	 -0.0587771 	 0 	
 1.4 	 -0.0295954 	 0 	 -0.263602 	 0 	 -0.0619082 	 0 	
 1.6 	 -0.0288403 	 0 	 -0.279114 	 0 	 -0.0650377 	 0 	
 1.8 	 -0.0280394 	 0 	 -0.294626 	 0 	 -0.0681657 	 0 	
 2 	 -0.0271929 	 0 	 -0.310138 	 0 	 -0.0712921 	 0 	
 2.2 	 -0.0263007 	 0 	 -0.32565 	 0 	 -0.074417 	 0 	
 2.4 	 -0.0253502 	 0 	 -0.341161 	 0 	 -0.0775403 	 0 	
 2.6 	 -0.0242779 	 0 	 -0.356668 	 0 	 -0.080662 	 0 	
 2.8 	 -0.0230747 	 0 	 -0.372172 	 0 	 -0.0837821 	 0 	
 3 	 -0.0217408 	 0 	 -0.387669 	 0 	 -0.0869007 	 0 	
 3.2 	 -0.020276 	 0 	 -0.40316 	 0 	 -0.0900177 	 0 	
 3.4 	 -0.0186854 	 0 	 -0.418645 	 0 	 -0.0931331 	 0 	
 3.6 	 -0.0170313 	 0 	 -0.434126 	 0 	 -0.0962469 	 0 	
 3.8 	 -0.0153331 	 0 	 -0.449605 	 0 	 -0.0993592 	 0 	
 4 	 -0.0135907 	 0 	 -0.465081 	 0 	 -0.10247 	 0 	
 4.2 	 -0.0118041 	 0 	 -0.480555 	 0 	 -0.105579 	 0 	
 4.4 	 -0.00997254 	 0 	 -0.496027 	 0 	 -0.108687 	 0 	
 4.6 	 -0.00803684 	 0 	 -0.511492 	 0 	 -0.111793 	 0 	
 4.8 	 -0.00595992 	 0 	 -0.526947 	 0 	 -0.114897 	 0 	
 5 	 -0.00374183 	 0 	 -0.54239 	 0 	 -0.118 	 0 	
 5.2 	 -0.00138264 	 0 	 -0.557821 	 0 	 -0.121101 	 0 	
 5.4 	 0.00111758 	 0 	 -0.573239 	 0 	 -0.124201 	 0 	
 5.6 	 0.00369324 	 0 	 -0.588649 	 0 	 -0.127299 	 0 	
 5.8 	 0.00625448 	 0 	 -0.60406 	 0 	 -0.130396 	 0 	
 6 	 0.00880084 	 0 	 -0.619474 	 0 	 -0.133491 	 0 	
 6.2 	 0.0113324 	 0 	 -0.63489 	 0 	 -0.136584 	 0 	
 6.4 	 0.0138493 	 0 	 -0.650309 	 0 	 -0.139676 	 0 	
 6.6 	 0.0164018 	 0 	 -0.665727 	 0 	 -0.142766 	 0 	
 6.8 	 0.0191316 	 0 	 -0.681126 	 0 	 -0.145855 	 0 	
 7 	 0.0220469 	 0 	 -0.696505 	 0 	 -0.148942 	 0 	
 7.2 	 0.0251477 	 0 	 -0.711861 	 0 	 -0.152028 	 0 	
 7.4 	 0.0284338 	 0 	 -0.727195 	 0 	 -0.155112 	 0 	
 7.6 	 0.0318878 	 0 	 -0.742505 	 0 	 -0.158194 	 0 	
 7.8 	 0.0354069 	 0 	 -0.757806 	 0 	 -0.161274 	 0 	
 8 	 0.038974 	 0 	 -0.7731 	 0 	 -0.164352 	 0 	
 8.2 	 0.042589 	 0 	 -0.788386 	 0 	 -0.167428 	 0 	
 8.4 	 0.0462519 	 0 	 -0.803665 	 0 	 -0.170501 	 0 	
 8.6 	 0.0499639 	 0 	 -0.818936 	 0 	 -0.173571 	 0 	
 8.8 	 0.0537419 	 0 	 -0.834198 	 0 	 -0.17664 	 0 	
 9 	 0.0575921 	 0 	 -0.849449 	 0 	 -0.179706 	 0 	
 9.2 	 0.0615144 	 0 	 -0.864688 	 0 	 -0.182769 	 0 	
 9.4 	 0.0655087 	 0 	 -0.879916 	 0 	 -0.18583 	 0 	
 9.6 	 0.0695751 	 0 	 -0.895132 	 0 	 -0.188889 	 0 	
 9.8 	 0.0737073 	 0 	 -0.910338 	 0 	 -0.191946 	 0 	
 10 	 0.0779007 	 0 	 -0.925534 	 0 	 -0.195 	 0 	
 10.2 	 0.0821554 	 0 	 -0.940719 	 0 	 -0.198052 	 0 	
 10.4 	 0.0864715 	 0 	 -0.955894 	 0 	 -0.201101 	 0 	
 10.6 	 0.0908488 	 0 	 -0.971059 	 0 	 -0.204148 	 0 	
 10.8 	 0.0953118 	 0 	 -0.986209 	 0 	 -0.207193 	 0 	
 11 	 0.0998993 	 0 	 -1.00134 	 0 	 -0.210235 	 0 	
 11.2 	 0.104612 	 0 	 -1.01644 	 0 	 -0.213276 	 0 	
 11.4 	 0.109449 	 0 	 -1.03152 	 0 	 -0.216313 	 0 	
 11.6 	 0.114411 	 0 	 -1.04657 	 0 	 -0.219349 	 0 	
 11.8 	 0.119474 	 0 	 -1.06161 	 0 	 -0.222381 	 0 	
 12 	 0.124566 	 0 	 -1.07663 	 0 	 -0.225412 	 0 	
 12.2 	 0.129679 	 0 	 -1.09164 	 0 	 -0.22844 	 0 	
 12.4 	 0.134816 	 0 	 -1.10664 	 0 	 -0.231466 	 0 	
 12.6 	 0.139974 	 0 	 -1.12164 	 0 	 -0.23449 	 0 	
 12.8 	 0.14521 	 0 	 -1.13662 	 0 	 -0.237511 	 0 	
 13 	 0.150914 	 0 	 -1.15157 	 0 	 -0.24053 	 0 	
 13.2 	 0.157162 	 0 	 -1.16646 	 0 	 -0.243546 	 0 	
 13.4 	 0.163954 	 0 	 -1.1813 	 0 	 -0.24656 	 0 	
 13.6 	 0.17129 	 0 	 -1.19607 	 0 	 -0.249572 	 0 	
 13.8 	 0.179133 	 0 	 -1.21074 	 0 	 -0.252585 	 0 	
 14 	 0.186706 	 0 	 -1.2242 	 0 	 -0.255685 	 0 	
 14.2 	 0.193675 	 0 	 -1.23601 	 0 	 -0.258906 	 0 	
 14.4 	 0.200025 	 0 	 -1.24619 	 0 	 -0.262248 	 0 	
 14.6 	 0.205738 	 0 	 -1.25473 	 0 	 -0.265711 	 0 	
 14.8 	 0.210797 	 0 	 -1.26166 	 0 	 -0.269295 	 0 	
 15 	 0.215377 	 0 	 -1.26744 	 0 	 -0.273 	 0 	
 15.2 	 0.219631 	 0 	 -1.2725 	 0 	 -0.276826 	 0 	
 15.4 	 0.223552 	 0 	 -1.27683 	 0 	 -0.280774 	 0 	
 15.6 	 0.227131 	 0 	 -1.28044 	 0 	 -0.284843 	 0 	
 15.8 	 0.230361 	 0 	 -1.28333 	 0 	 -0.289032 	 0 	
 16 	 0.233365 	 0 	 -1.28547 	 0 	 -0.293343 	 0 	
 16.2 	 0.236374 	 0 	 -1.28681 	 0 	 -0.297776 	 0 	
 16.4 	 0.239386 	 0 	 -1.28735 	 0 	 -0.302329 	 0 	
 16.6 	 0.242391 	 0 	 -1.28708 	 0 	 -0.307003 	 0 	
 16.8 	 0.245383 	 0 	 -1.28601 	 0 	 -0.311799 	 0 	
 17 	 0.248113 	 0 	 -1.28354 	 0 	 -0.316715 	 0 	
 17.2 	 0.249666 	 0 	 -1.27749 	 0 	 -0.321753 	 0 	
 17.4 	 0.249918 	 0 	 -1.26765 	 0 	 -0.326912 	 0 	
 17.6 	 0.248827 	 0 	 -1.25403 	 0 	 -0.332192 	 0 	
 17.8 	 0.246356 	 0 	 -1.23665 	 0 	 -0.337593 	 0 	
 18 	 0.242188 	 0 	 -1.21461 	 0 	 -0.343115 	 0 	
 18.2 	 0.233886 	 0 	 -1.18002 	 0 	 -0.348759 	 0 	
 18.4 	 0.220765 	 0 	 -1.13114 	 0 	 -0.354523 	 0 	
 18.6 	 0.202676 	 0 	 -1.068 	 0 	 -0.360409 	 0 	
 18.8 	 0.179468 	 0 	 -0.990662 	 0 	 -0.366416 	 0 	
 19 	 0.151184 	 0 	 -0.899802 	 0 	 -0.372543 	 0 	
 19.2 	 0.123578 	 0 	 -0.814617 	 0 	 -0.378792 	 0 	
 19.4 	 0.09952 	 0 	 -0.74411 	 0 	 -0.385163 	 0 	
 19.6 	 0.0791635 	 0 	 -0.688241 	 0 	 -0.391654 	 0 	
 19.8 	 0.0626605 	 0 	 -0.646968 	 0 	 -0.398266 	 0 	
 20 	 0.0501628 	 0 	 -0.620249 	 0 	 -0.405 	 0 	
X Force Derivatives 
alfa 	 CXA 	 CXAP 	 CXU 	 CXQ 	 CXB 	 CXP 	 CXR 	 

 -5 	 0.183006 	 0 	 0 	 0 	 0 	 0 	 0 	
 -4.8 	 0.183006 	 0 	 0 	 0 	 0 	 0 	 0 	
 -4.6 	 0.0381275 	 0 	 0 	 0 	 0 	 0 	 0 	
 -4.4 	 -0.0912622 	 0 	 0 	 0 	 0 	 0 	 0 	
 -4.2 	 -0.205154 	 0 	 0 	 0 	 0 	 0 	 0 	
 -4 	 -0.303539 	 0 	 0 	 0 	 0 	 0 	 0 	
 -3.8 	 -0.357836 	 0 	 0 	 0 	 0 	 0 	 0 	
 -3.6 	 -0.344302 	 0 	 0 	 0 	 0 	 0 	 0 	
 -3.4 	 -0.328701 	 0 	 0 	 0 	 0 	 0 	 0 	
 -3.2 	 -0.313124 	 0 	 0 	 0 	 0 	 0 	 0 	
 -3 	 -0.297571 	 0 	 0 	 0 	 0 	 0 	 0 	
 -2.8 	 -0.280439 	 0 	 0 	 0 	 0 	 0 	 0 	
 -2.6 	 -0.256325 	 0 	 0 	 0 	 0 	 0 	 0 	
 -2.4 	 -0.231389 	 0 	 0 	 0 	 0 	 0 	 0 	
 -2.2 	 -0.206448 	 0 	 0 	 0 	 0 	 0 	 0 	
 -2 	 -0.181503 	 0 	 0 	 0 	 0 	 0 	 0 	
 -1.8 	 -0.157561 	 0 	 0 	 0 	 0 	 0 	 0 	
 -1.6 	 -0.144141 	 0 	 0 	 0 	 0 	 0 	 0 	
 -1.4 	 -0.133519 	 0 	 0 	 0 	 0 	 0 	 0 	
 -1.2 	 -0.122898 	 0 	 0 	 0 	 0 	 0 	 0 	
 -1 	 -0.112275 	 0 	 0 	 0 	 0 	 0 	 0 	
 -0.8 	 -0.101303 	 0 	 0 	 0 	 0 	 0 	 0 	
 -0.6 	 -0.0743126 	 0 	 0 	 0 	 0 	 0 	 0 	
 -0.4 	 -0.038614 	 0 	 0 	 0 	 0 	 0 	 0 	
 -0.2 	 -0.00291071 	 0 	 0 	 0 	 0 	 0 	 0 	
 0 	 0.0327962 	 0 	 0 	 0 	 0 	 0 	 0 	
 0.2 	 0.0685055 	 0 	 0 	 0 	 0 	 0 	 0 	
 0.4 	 0.0977046 	 0 	 0 	 0 	 0 	 0 	 0 	
 0.6 	 0.119248 	 0 	 0 	 0 	 0 	 0 	 0 	
 0.8 	 0.140781 	 0 	 0 	 0 	 0 	 0 	 0 	
 1 	 0.162315 	 0 	 0 	 0 	 0 	 0 	 0 	
 1.2 	 0.183849 	 0 	 0 	 0 	 0 	 0 	 0 	
 1.4 	 0.203007 	 0 	 0 	 0 	 0 	 0 	 0 	
 1.6 	 0.216353 	 0 	 0 	 0 	 0 	 0 	 0 	
 1.8 	 0.229439 	 0 	 0 	 0 	 0 	 0 	 0 	
 2 	 0.242529 	 0 	 0 	 0 	 0 	 0 	 0 	
 2.2 	 0.255624 	 0 	 0 	 0 	 0 	 0 	 0 	
 2.4 	 0.272301 	 0 	 0 	 0 	 0 	 0 	 0 	
 2.6 	 0.307226 	 0 	 0 	 0 	 0 	 0 	 0 	
 2.8 	 0.344707 	 0 	 0 	 0 	 0 	 0 	 0 	
 3 	 0.382181 	 0 	 0 	 0 	 0 	 0 	 0 	
 3.2 	 0.419647 	 0 	 0 	 0 	 0 	 0 	 0 	
 3.4 	 0.455726 	 0 	 0 	 0 	 0 	 0 	 0 	
 3.6 	 0.473886 	 0 	 0 	 0 	 0 	 0 	 0 	
 3.8 	 0.486538 	 0 	 0 	 0 	 0 	 0 	 0 	
 4 	 0.499195 	 0 	 0 	 0 	 0 	 0 	 0 	
 4.2 	 0.511858 	 0 	 0 	 0 	 0 	 0 	 0 	
 4.4 	 0.524745 	 0 	 0 	 0 	 0 	 0 	 0 	
 4.6 	 0.554577 	 0 	 0 	 0 	 0 	 0 	 0 	
 4.8 	 0.595038 	 0 	 0 	 0 	 0 	 0 	 0 	
 5 	 0.635483 	 0 	 0 	 0 	 0 	 0 	 0 	
 5.2 	 0.675908 	 0 	 0 	 0 	 0 	 0 	 0 	
 5.4 	 0.716313 	 0 	 0 	 0 	 0 	 0 	 0 	
 5.6 	 0.737927 	 0 	 0 	 0 	 0 	 0 	 0 	
 5.8 	 0.733794 	 0 	 0 	 0 	 0 	 0 	 0 	
 6 	 0.729531 	 0 	 0 	 0 	 0 	 0 	 0 	
 6.2 	 0.725294 	 0 	 0 	 0 	 0 	 0 	 0 	
 6.4 	 0.721086 	 0 	 0 	 0 	 0 	 0 	 0 	
 6.6 	 0.731304 	 0 	 0 	 0 	 0 	 0 	 0 	
 6.8 	 0.782073 	 0 	 0 	 0 	 0 	 0 	 0 	
 7 	 0.835244 	 0 	 0 	 0 	 0 	 0 	 0 	
 7.2 	 0.888374 	 0 	 0 	 0 	 0 	 0 	 0 	
 7.4 	 0.941458 	 0 	 0 	 0 	 0 	 0 	 0 	
 7.6 	 0.989586 	 0 	 0 	 0 	 0 	 0 	 0 	
 7.8 	 1.00822 	 0 	 0 	 0 	 0 	 0 	 0 	
 8 	 1.02196 	 0 	 0 	 0 	 0 	 0 	 0 	
 8.2 	 1.03569 	 0 	 0 	 0 	 0 	 0 	 0 	
 8.4 	 1.04944 	 0 	 0 	 0 	 0 	 0 	 0 	
 8.6 	 1.06348 	 0 	 0 	 0 	 0 	 0 	 0 	
 8.8 	 1.08241 	 0 	 0 	 0 	 0 	 0 	 0 	
 9 	 1.10307 	 0 	 0 	 0 	 0 	 0 	 0 	
 9.2 	 1.12373 	 0 	 0 	 0 	 0 	 0 	 0 	
 9.4 	 1.14438 	 0 	 0 	 0 	 0 	 0 	 0 	
 9.6 	 1.16502 	 0 	 0 	 0 	 0 	 0 	 0 	
 9.8 	 1.18387 	 0 	 0 	 0 	 0 	 0 	 0 	
 10 	 1.20142 	 0 	 0 	 0 	 0 	 0 	 0 	
 10.2 	 1.21898 	 0 	 0 	 0 	 0 	 0 	 0 	
 10.4 	 1.23654 	 0 	 0 	 0 	 0 	 0 	 0 	
 10.6 	 1.2541 	 0 	 0 	 0 	 0 	 0 	 0 	
 10.8 	 1.27865 	 0 	 0 	 0 	 0 	 0 	 0 	
 11 	 1.31432 	 0 	 0 	 0 	 0 	 0 	 0 	
 11.2 	 1.3501 	 0 	 0 	 0 	 0 	 0 	 0 	
 11.4 	 1.38584 	 0 	 0 	 0 	 0 	 0 	 0 	
 11.6 	 1.42155 	 0 	 0 	 0 	 0 	 0 	 0 	
 11.8 	 1.45071 	 0 	 0 	 0 	 0 	 0 	 0 	
 12 	 1.45872 	 0 	 0 	 0 	 0 	 0 	 0 	
 12.2 	 1.46511 	 0 	 0 	 0 	 0 	 0 	 0 	
 12.4 	 1.47151 	 0 	 0 	 0 	 0 	 0 	 0 	
 12.6 	 1.47793 	 0 	 0 	 0 	 0 	 0 	 0 	
 12.8 	 1.50008 	 0 	 0 	 0 	 0 	 0 	 0 	
 13 	 1.63416 	 0 	 0 	 0 	 0 	 0 	 0 	
 13.2 	 1.79009 	 0 	 0 	 0 	 0 	 0 	 0 	
 13.4 	 1.94592 	 0 	 0 	 0 	 0 	 0 	 0 	
 13.6 	 2.10164 	 0 	 0 	 0 	 0 	 0 	 0 	
 13.8 	 2.24714 	 0 	 0 	 0 	 0 	 0 	 0 	
 14 	 2.16953 	 0 	 0 	 0 	 0 	 0 	 0 	
 14.2 	 1.99678 	 0 	 0 	 0 	 0 	 0 	 0 	
 14.4 	 1.81916 	 0 	 0 	 0 	 0 	 0 	 0 	
 14.6 	 1.63669 	 0 	 0 	 0 	 0 	 0 	 0 	
 14.8 	 1.44948 	 0 	 0 	 0 	 0 	 0 	 0 	
 15 	 1.3123 	 0 	 0 	 0 	 0 	 0 	 0 	
 15.2 	 1.2188 	 0 	 0 	 0 	 0 	 0 	 0 	
 15.4 	 1.12315 	 0 	 0 	 0 	 0 	 0 	 0 	
 15.6 	 1.02535 	 0 	 0 	 0 	 0 	 0 	 0 	
 15.8 	 0.925414 	 0 	 0 	 0 	 0 	 0 	 0 	
 16 	 0.860639 	 0 	 0 	 0 	 0 	 0 	 0 	
 16.2 	 0.862204 	 0 	 0 	 0 	 0 	 0 	 0 	
 16.4 	 0.862864 	 0 	 0 	 0 	 0 	 0 	 0 	
 16.6 	 0.861125 	 0 	 0 	 0 	 0 	 0 	 0 	
 16.8 	 0.856988 	 0 	 0 	 0 	 0 	 0 	 0 	
 17 	 0.782299 	 0 	 0 	 0 	 0 	 0 	 0 	
 17.2 	 0.444993 	 0 	 0 	 0 	 0 	 0 	 0 	
 17.4 	 0.0719786 	 0 	 0 	 0 	 0 	 0 	 0 	
 17.6 	 -0.312393 	 0 	 0 	 0 	 0 	 0 	 0 	
 17.8 	 -0.708096 	 0 	 0 	 0 	 0 	 0 	 0 	
 18 	 -1.19412 	 0 	 0 	 0 	 0 	 0 	 0 	
 18.2 	 -2.37851 	 0 	 0 	 0 	 0 	 0 	 0 	
 18.4 	 -3.75904 	 0 	 0 	 0 	 0 	 0 	 0 	
 18.6 	 -5.18256 	 0 	 0 	 0 	 0 	 0 	 0 	
 18.8 	 -6.64896 	 0 	 0 	 0 	 0 	 0 	 0 	
 19 	 -8.10362 	 0 	 0 	 0 	 0 	 0 	 0 	
 19.2 	 -7.90913 	 0 	 0 	 0 	 0 	 0 	 0 	
 19.4 	 -6.89249 	 0 	 0 	 0 	 0 	 0 	 0 	
 19.6 	 -5.83212 	 0 	 0 	 0 	 0 	 0 	 0 	
 19.8 	 -4.72812 	 0 	 0 	 0 	 0 	 0 	 0 	
 20 	 -3.58058 	 0 	 0 	 0 	 0 	 0 	 0 	
Y Force Derivatives 
alfa 	 CYB 	 CYBP 	 CYP 	 CYR 	 CYA 	 CYQ 	

 -5 	 -0.31 	 0 	 -0.037 	 0.21 	 0 	 0 	
 -4.8 	 -0.31 	 0 	 -0.037 	 0.21 	 0 	 0 	
 -4.6 	 -0.31 	 0 	 -0.037 	 0.21 	 0 	 0 	
 -4.4 	 -0.31 	 0 	 -0.037 	 0.21 	 0 	 0 	
 -4.2 	 -0.31 	 0 	 -0.037 	 0.21 	 0 	 0 	
 -4 	 -0.31 	 0 	 -0.037 	 0.21 	 0 	 0 	
 -3.8 	 -0.31 	 0 	 -0.037 	 0.21 	 0 	 0 	
 -3.6 	 -0.31 	 0 	 -0.037 	 0.21 	 0 	 0 	
 -3.4 	 -0.31 	 0 	 -0.037 	 0.21 	 0 	 0 	
 -3.2 	 -0.31 	 0 	 -0.037 	 0.21 	 0 	 0 	
 -3 	 -0.31 	 0 	 -0.037 	 0.21 	 0 	 0 	
 -2.8 	 -0.31 	 0 	 -0.037 	 0.21 	 0 	 0 	
 -2.6 	 -0.31 	 0 	 -0.037 	 0.21 	 0 	 0 	
 -2.4 	 -0.31 	 0 	 -0.037 	 0.21 	 0 	 0 	
 -2.2 	 -0.31 	 0 	 -0.037 	 0.21 	 0 	 0 	
 -2 	 -0.31 	 0 	 -0.037 	 0.21 	 0 	 0 	
 -1.8 	 -0.31 	 0 	 -0.037 	 0.21 	 0 	 0 	
 -1.6 	 -0.31 	 0 	 -0.037 	 0.21 	 0 	 0 	
 -1.4 	 -0.31 	 0 	 -0.037 	 0.21 	 0 	 0 	
 -1.2 	 -0.31 	 0 	 -0.037 	 0.21 	 0 	 0 	
 -1 	 -0.31 	 0 	 -0.037 	 0.21 	 0 	 0 	
 -0.8 	 -0.31 	 0 	 -0.037 	 0.21 	 0 	 0 	
 -0.6 	 -0.31 	 0 	 -0.037 	 0.21 	 0 	 0 	
 -0.4 	 -0.31 	 0 	 -0.037 	 0.21 	 0 	 0 	
 -0.2 	 -0.31 	 0 	 -0.037 	 0.21 	 0 	 0 	
 0 	 -0.31 	 0 	 -0.037 	 0.21 	 0 	 0 	
 0.2 	 -0.31 	 0 	 -0.037 	 0.21 	 0 	 0 	
 0.4 	 -0.31 	 0 	 -0.037 	 0.21 	 0 	 0 	
 0.6 	 -0.31 	 0 	 -0.037 	 0.21 	 0 	 0 	
 0.8 	 -0.31 	 0 	 -0.037 	 0.21 	 0 	 0 	
 1 	 -0.31 	 0 	 -0.037 	 0.21 	 0 	 0 	
 1.2 	 -0.31 	 0 	 -0.037 	 0.21 	 0 	 0 	
 1.4 	 -0.31 	 0 	 -0.037 	 0.21 	 0 	 0 	
 1.6 	 -0.31 	 0 	 -0.037 	 0.21 	 0 	 0 	
 1.8 	 -0.31 	 0 	 -0.037 	 0.21 	 0 	 0 	
 2 	 -0.31 	 0 	 -0.037 	 0.21 	 0 	 0 	
 2.2 	 -0.31 	 0 	 -0.037 	 0.21 	 0 	 0 	
 2.4 	 -0.31 	 0 	 -0.037 	 0.21 	 0 	 0 	
 2.6 	 -0.31 	 0 	 -0.037 	 0.21 	 0 	 0 	
 2.8 	 -0.31 	 0 	 -0.037 	 0.21 	 0 	 0 	
 3 	 -0.31 	 0 	 -0.037 	 0.21 	 0 	 0 	
 3.2 	 -0.31 	 0 	 -0.037 	 0.21 	 0 	 0 	
 3.4 	 -0.31 	 0 	 -0.037 	 0.21 	 0 	 0 	
 3.6 	 -0.31 	 0 	 -0.037 	 0.21 	 0 	 0 	
 3.8 	 -0.31 	 0 	 -0.037 	 0.21 	 0 	 0 	
 4 	 -0.31 	 0 	 -0.037 	 0.21 	 0 	 0 	
 4.2 	 -0.31 	 0 	 -0.037 	 0.21 	 0 	 0 	
 4.4 	 -0.31 	 0 	 -0.037 	 0.21 	 0 	 0 	
 4.6 	 -0.31 	 0 	 -0.037 	 0.21 	 0 	 0 	
 4.8 	 -0.31 	 0 	 -0.037 	 0.21 	 0 	 0 	
 5 	 -0.31 	 0 	 -0.037 	 0.21 	 0 	 0 	
 5.2 	 -0.31 	 0 	 -0.037 	 0.21 	 0 	 0 	
 5.4 	 -0.31 	 0 	 -0.037 	 0.21 	 0 	 0 	
 5.6 	 -0.31 	 0 	 -0.037 	 0.21 	 0 	 0 	
 5.8 	 -0.31 	 0 	 -0.037 	 0.21 	 0 	 0 	
 6 	 -0.31 	 0 	 -0.037 	 0.21 	 0 	 0 	
 6.2 	 -0.31 	 0 	 -0.037 	 0.21 	 0 	 0 	
 6.4 	 -0.31 	 0 	 -0.037 	 0.21 	 0 	 0 	
 6.6 	 -0.31 	 0 	 -0.037 	 0.21 	 0 	 0 	
 6.8 	 -0.31 	 0 	 -0.037 	 0.21 	 0 	 0 	
 7 	 -0.31 	 0 	 -0.037 	 0.21 	 0 	 0 	
 7.2 	 -0.31 	 0 	 -0.037 	 0.21 	 0 	 0 	
 7.4 	 -0.31 	 0 	 -0.037 	 0.21 	 0 	 0 	
 7.6 	 -0.31 	 0 	 -0.037 	 0.21 	 0 	 0 	
 7.8 	 -0.31 	 0 	 -0.037 	 0.21 	 0 	 0 	
 8 	 -0.31 	 0 	 -0.037 	 0.21 	 0 	 0 	
 8.2 	 -0.31 	 0 	 -0.037 	 0.21 	 0 	 0 	
 8.4 	 -0.31 	 0 	 -0.037 	 0.21 	 0 	 0 	
 8.6 	 -0.31 	 0 	 -0.037 	 0.21 	 0 	 0 	
 8.8 	 -0.31 	 0 	 -0.037 	 0.21 	 0 	 0 	
 9 	 -0.31 	 0 	 -0.037 	 0.21 	 0 	 0 	
 9.2 	 -0.31 	 0 	 -0.037 	 0.21 	 0 	 0 	
 9.4 	 -0.31 	 0 	 -0.037 	 0.21 	 0 	 0 	
 9.6 	 -0.31 	 0 	 -0.037 	 0.21 	 0 	 0 	
 9.8 	 -0.31 	 0 	 -0.037 	 0.21 	 0 	 0 	
 10 	 -0.31 	 0 	 -0.037 	 0.21 	 0 	 0 	
 10.2 	 -0.31 	 0 	 -0.037 	 0.21 	 0 	 0 	
 10.4 	 -0.31 	 0 	 -0.037 	 0.21 	 0 	 0 	
 10.6 	 -0.31 	 0 	 -0.037 	 0.21 	 0 	 0 	
 10.8 	 -0.31 	 0 	 -0.037 	 0.21 	 0 	 0 	
 11 	 -0.31 	 0 	 -0.037 	 0.21 	 0 	 0 	
 11.2 	 -0.31 	 0 	 -0.037 	 0.21 	 0 	 0 	
 11.4 	 -0.31 	 0 	 -0.037 	 0.21 	 0 	 0 	
 11.6 	 -0.31 	 0 	 -0.037 	 0.21 	 0 	 0 	
 11.8 	 -0.31 	 0 	 -0.037 	 0.21 	 0 	 0 	
 12 	 -0.31 	 0 	 -0.037 	 0.21 	 0 	 0 	
 12.2 	 -0.31 	 0 	 -0.037 	 0.21 	 0 	 0 	
 12.4 	 -0.31 	 0 	 -0.037 	 0.21 	 0 	 0 	
 12.6 	 -0.31 	 0 	 -0.037 	 0.21 	 0 	 0 	
 12.8 	 -0.31 	 0 	 -0.037 	 0.21 	 0 	 0 	
 13 	 -0.31 	 0 	 -0.037 	 0.21 	 0 	 0 	
 13.2 	 -0.31 	 0 	 -0.037 	 0.21 	 0 	 0 	
 13.4 	 -0.31 	 0 	 -0.037 	 0.21 	 0 	 0 	
 13.6 	 -0.31 	 0 	 -0.037 	 0.21 	 0 	 0 	
 13.8 	 -0.31 	 0 	 -0.037 	 0.21 	 0 	 0 	
 14 	 -0.31 	 0 	 -0.037 	 0.21 	 0 	 0 	
 14.2 	 -0.31 	 0 	 -0.037 	 0.21 	 0 	 0 	
 14.4 	 -0.31 	 0 	 -0.037 	 0.21 	 0 	 0 	
 14.6 	 -0.31 	 0 	 -0.037 	 0.21 	 0 	 0 	
 14.8 	 -0.31 	 0 	 -0.037 	 0.21 	 0 	 0 	
 15 	 -0.31 	 0 	 -0.037 	 0.21 	 0 	 0 	
 15.2 	 -0.31 	 0 	 -0.037 	 0.21 	 0 	 0 	
 15.4 	 -0.31 	 0 	 -0.037 	 0.21 	 0 	 0 	
 15.6 	 -0.31 	 0 	 -0.037 	 0.21 	 0 	 0 	
 15.8 	 -0.31 	 0 	 -0.037 	 0.21 	 0 	 0 	
 16 	 -0.31 	 0 	 -0.037 	 0.21 	 0 	 0 	
 16.2 	 -0.31 	 0 	 -0.037 	 0.21 	 0 	 0 	
 16.4 	 -0.31 	 0 	 -0.037 	 0.21 	 0 	 0 	
 16.6 	 -0.31 	 0 	 -0.037 	 0.21 	 0 	 0 	
 16.8 	 -0.31 	 0 	 -0.037 	 0.21 	 0 	 0 	
 17 	 -0.31 	 0 	 -0.037 	 0.21 	 0 	 0 	
 17.2 	 -0.31 	 0 	 -0.037 	 0.21 	 0 	 0 	
 17.4 	 -0.31 	 0 	 -0.037 	 0.21 	 0 	 0 	
 17.6 	 -0.31 	 0 	 -0.037 	 0.21 	 0 	 0 	
 17.8 	 -0.31 	 0 	 -0.037 	 0.21 	 0 	 0 	
 18 	 -0.31 	 0 	 -0.037 	 0.21 	 0 	 0 	
 18.2 	 -0.31 	 0 	 -0.037 	 0.21 	 0 	 0 	
 18.4 	 -0.31 	 0 	 -0.037 	 0.21 	 0 	 0 	
 18.6 	 -0.31 	 0 	 -0.037 	 0.21 	 0 	 0 	
 18.8 	 -0.31 	 0 	 -0.037 	 0.21 	 0 	 0 	
 19 	 -0.31 	 0 	 -0.037 	 0.21 	 0 	 0 	
 19.2 	 -0.31 	 0 	 -0.037 	 0.21 	 0 	 0 	
 19.4 	 -0.31 	 0 	 -0.037 	 0.21 	 0 	 0 	
 19.6 	 -0.31 	 0 	 -0.037 	 0.21 	 0 	 0 	
 19.8 	 -0.31 	 0 	 -0.037 	 0.21 	 0 	 0 	
 20 	 -0.31 	 0 	 -0.037 	 0.21 	 0 	 0 	
Z Force Derivatives 
alfa 	 CZALPHA 	 CZAP 	 CZU 	 CZQ 	 CZB 	 CZP 	 CZR 	 

 -5 	 2.53026 	 -1.7 	 0 	 -3.9 	 0 	 0 	 0 	
 -4.8 	 2.53026 	 -1.7 	 0 	 -3.9 	 0 	 0 	 0 	
 -4.6 	 1.05224 	 -1.7 	 0 	 -3.9 	 0 	 0 	 0 	
 -4.4 	 -0.427174 	 -1.7 	 0 	 -3.9 	 0 	 0 	 0 	
 -4.2 	 -1.90788 	 -1.7 	 0 	 -3.9 	 0 	 0 	 0 	
 -4 	 -3.38976 	 -1.7 	 0 	 -3.9 	 0 	 0 	 0 	
 -3.8 	 -4.40746 	 -1.7 	 0 	 -3.9 	 0 	 0 	 0 	
 -3.6 	 -4.43839 	 -1.7 	 0 	 -3.9 	 0 	 0 	 0 	
 -3.4 	 -4.4371 	 -1.7 	 0 	 -3.9 	 0 	 0 	 0 	
 -3.2 	 -4.43581 	 -1.7 	 0 	 -3.9 	 0 	 0 	 0 	
 -3 	 -4.43452 	 -1.7 	 0 	 -3.9 	 0 	 0 	 0 	
 -2.8 	 -4.43369 	 -1.7 	 0 	 -3.9 	 0 	 0 	 0 	
 -2.6 	 -4.43484 	 -1.7 	 0 	 -3.9 	 0 	 0 	 0 	
 -2.4 	 -4.43612 	 -1.7 	 0 	 -3.9 	 0 	 0 	 0 	
 -2.2 	 -4.43731 	 -1.7 	 0 	 -3.9 	 0 	 0 	 0 	
